,Airmass,BJD,Best fit model,Normalized flux,Normalized flux error,Residual,X centroid,Y centroid
0,1.076886,2457828.62194,1.0,0.99995010392,0.000496834741233,-4.98960804405e-05,620.59771,601.172286
1,1.076515,2457828.62214,1.0,0.999706730673,0.000495829002891,-0.000293269327389,620.597389,601.52001
2,1.076147,2457828.62233,1.0,0.999583522238,0.000496834741233,-0.000416477761981,620.965706,601.447845
3,1.07578,2457828.62252,1.0,1.00110316647,0.000496834741233,0.00110316646645,620.891279,601.437263
4,1.075414,2457828.62271,1.0,0.999862603653,0.000495829002891,-0.000137396347168,621.00187,601.270229
5,1.07505,2457828.62291,1.0,0.999512601222,0.000497337610404,-0.000487398778011,621.174482,601.494137
6,1.074684,2457828.6231,1.0,1.00004668464,0.000497337610404,4.66846431779e-05,621.027292,601.4766
7,1.074324,2457828.62329,1.0,0.999714764573,0.000497337610404,-0.000285235426823,621.413967,601.66714
8,1.073965,2457828.62348,1.0,1.00022265695,0.000498343348747,0.000222656948552,620.937791,601.506398
9,1.073607,2457828.62367,1.0,0.999100247471,0.000498846217918,-0.00089975252939,620.97101,601.396191
10,1.073251,2457828.62387,1.0,0.999720279671,0.000497840479576,-0.000279720328817,621.239487,601.40131
11,1.072897,2457828.62406,1.0,1.00001895754,0.00049934908709,1.89575419771e-05,621.091577,601.46626
12,1.072544,2457828.62425,1.0,0.999696612916,0.000500857694603,-0.000303387084445,621.29565,601.618436
13,1.072193,2457828.62444,1.0,1.00059774898,0.000501360563775,0.000597748982878,621.077281,601.531067
14,1.071843,2457828.62463,1.0,0.999972677115,0.00049934908709,-2.73228846595e-05,620.87055,601.225371
15,1.071494,2457828.62482,1.0,0.999111235808,0.000498343348747,-0.000888764192028,620.801087,601.233369
16,1.071147,2457828.62502,1.0,1.0007933277,0.000497840479576,0.000793327698307,620.726049,601.261595
17,1.070801,2457828.62521,1.0,1.00074353816,0.000498846217918,0.000743538162723,621.034399,601.471941
18,1.070457,2457828.6254,1.0,1.00017327903,0.000499851956261,0.000173279025112,621.10369,601.540549
19,1.070114,2457828.62559,1.0,1.00021048586,0.000501360563775,0.000210485856161,621.19952,601.391152
20,1.069773,2457828.62578,1.0,0.999797624779,0.000501360563775,-0.000202375221093,621.021893,601.387259
21,1.069434,2457828.62598,1.0,1.00028940442,0.000501863432946,0.00028940442122,620.81729,601.339203
22,1.069095,2457828.62617,1.0,1.00058810321,0.000501863432946,0.000588103211596,620.675408,601.267663
23,1.068758,2457828.62636,1.0,0.99940736091,0.000501360563775,-0.000592639090215,621.098102,601.541334
24,1.068423,2457828.62655,1.0,0.999002021951,0.000501360563775,-0.000997978049481,621.002534,601.354758
25,1.068089,2457828.62674,1.0,0.999555675411,0.000505383517145,-0.000444324589262,620.956593,601.515356
26,1.067751,2457828.62694,1.0,0.99999373175,0.000501863432946,-6.26825046512e-06,620.793346,601.511526
27,1.067419,2457828.62713,1.0,0.999640733023,0.000503874909631,-0.000359266976754,620.646765,601.36277
28,1.067087,2457828.62732,1.0,0.999623148034,0.000502869171289,-0.000376851965795,620.95824,601.330173
29,1.066759,2457828.62752,1.0,1.00029749012,0.000506389255488,0.000297490115021,621.111822,601.475395
30,1.066431,2457828.62771,1.0,1.00086725632,0.000503874909631,0.000867256318046,620.658994,601.091513
31,1.066106,2457828.6279,1.0,0.999700594353,0.000501863432946,-0.00029940564697,620.673505,601.201428
32,1.065782,2457828.62809,1.0,1.00013657643,0.00050739499383,0.000136576427168,620.720703,601.42686
33,1.06546,2457828.62828,1.0,1.00005257087,0.000501863432946,5.25708683556e-05,620.794774,601.556851
34,1.065139,2457828.62848,1.0,1.00016420234,0.000498343348747,0.000164202336756,620.455345,601.201361
35,1.064819,2457828.62867,1.0,0.999806153989,0.000500857694603,-0.000193846010571,620.635375,601.191243
36,1.064501,2457828.62886,1.0,1.00036282467,0.000497337610404,0.000362824674419,621.21246,601.339449
37,1.064184,2457828.62905,1.0,1.0011618783,0.000495326133719,0.00116187829997,621.399116,601.492434
38,1.063556,2457828.62943,1.0,0.999510926916,0.000496331872062,-0.000489073084203,620.645311,601.171701
39,1.062934,2457828.62982,1.0,1.00053375183,0.000497337610404,0.000533751825202,620.848387,601.236145
40,1.062624,2457828.63001,1.0,0.999834234401,0.000495326133719,-0.000165765599268,620.854771,601.134587
41,1.062317,2457828.6302,1.0,1.00001174172,0.000493314657034,1.17417208274e-05,621.332611,601.418515
42,1.06201,2457828.63039,1.0,1.00026870238,0.000491303180349,0.00026870237973,621.28171,601.482279
43,1.061699,2457828.63059,1.0,0.99939527592,0.000489291703664,-0.000604724080194,621.135662,601.42287
44,1.061395,2457828.63078,1.0,0.999467704512,0.000486777357807,-0.000532295487573,620.972922,601.388508
45,1.061093,2457828.63097,1.0,1.00031400692,0.000488285965321,0.000314006920499,620.894545,601.088188
46,1.060791,2457828.63117,1.0,0.999033214573,0.000485771619465,-0.000966785426818,621.006145,601.227385
47,1.060491,2457828.63136,1.0,1.00019483686,0.000485268750293,0.000194836861489,620.974826,601.421843
48,1.060169,2457828.63156,1.0,1.00072215214,0.000485771619465,0.00072215213704,620.907916,601.218077
49,1.059874,2457828.63175,1.0,0.999119481671,0.000484765881122,-0.000880518328808,621.078824,601.305277
50,1.059579,2457828.63195,1.0,0.998463231915,0.000484263011951,-0.00153676808497,620.936297,601.248903
51,1.059285,2457828.63214,1.0,0.999169254744,0.000485268750293,-0.000830745256102,621.023495,601.271988
52,1.058985,2457828.63234,1.0,1.00092989884,0.000486274488636,0.000929898842346,621.212927,601.514714
53,1.058694,2457828.63253,1.0,1.00005138091,0.000486777357807,5.13809124789e-05,620.974164,601.358
54,1.058404,2457828.63272,1.0,0.999649101007,0.000486274488636,-0.000350898992597,620.860474,601.410961
55,1.058115,2457828.63291,1.0,0.999458508104,0.000485268750293,-0.000541491896141,620.754527,601.289253
56,1.057829,2457828.6331,1.0,1.00027463836,0.000485771619465,0.000274638361653,621.077718,601.275868
57,1.057543,2457828.6333,1.0,1.0005713466,0.000487280226979,0.000571346604668,621.307995,601.400393
58,1.057259,2457828.63349,1.0,1.00089114498,0.00048778309615,0.000891144980657,620.926279,601.339262
59,1.056977,2457828.63368,1.0,0.999911047478,0.000488285965321,-8.89525218104e-05,620.842438,601.364342
60,1.056692,2457828.63387,1.0,0.999700381657,0.000488285965321,-0.000299618343301,620.630919,601.394035
61,1.056413,2457828.63407,1.0,1.00114713077,0.000488285965321,0.00114713077487,620.916173,601.344345
62,1.056134,2457828.63426,1.0,1.00039131292,0.000487280226979,0.000391312922798,621.267942,601.201307
63,1.055858,2457828.63445,1.0,1.00028369342,0.000486777357807,0.000283693422773,621.228922,601.307856
64,1.05531,2457828.63483,1.0,1.00033895621,0.00048778309615,0.000338956207456,621.325528,601.506575
65,1.055037,2457828.63503,1.0,1.00024040929,0.000488788834492,0.000240409291582,620.976028,601.191299
66,1.054495,2457828.63541,1.0,0.999958267782,0.000485771619465,-4.17322180872e-05,621.089377,601.332364
67,1.054226,2457828.6356,1.0,1.00059944141,0.000484765881122,0.000599441407261,621.014743,601.552373
68,1.053959,2457828.63579,1.0,1.0006633003,0.000484765881122,0.000663300304388,620.91959,601.181393
69,1.053693,2457828.63599,1.0,1.00010259569,0.000484765881122,0.000102595690776,620.638072,601.284384
70,1.053428,2457828.63618,1.0,1.00029870918,0.00048376014278,0.000298709179952,620.682279,601.164669
71,1.053163,2457828.63637,1.0,1.00008047939,0.00048376014278,8.04793915676e-05,621.132998,601.19789
72,1.052901,2457828.63656,1.0,1.00041840199,0.000483257273608,0.000418401987048,621.074475,601.162479
73,1.052641,2457828.63675,1.0,1.00017551069,0.000483257273608,0.000175510689689,620.691295,601.366919
74,1.052381,2457828.63695,1.0,1.00081565765,0.000483257273608,0.00081565764737,620.483132,601.390123
75,1.052124,2457828.63714,1.0,0.999631395271,0.000481748666094,-0.000368604728897,620.939566,600.90259
76,1.051868,2457828.63733,1.0,1.00064414737,0.000482251535266,0.000644147365127,621.116726,600.958301
77,1.051612,2457828.63752,1.0,1.00009553254,0.000482251535266,9.55325409502e-05,621.148432,601.221706
78,1.051359,2457828.63771,1.0,1.0000864754,0.000481748666094,8.64753984975e-05,621.108739,601.288781
79,1.051107,2457828.6379,1.0,1.00006130552,0.000482251535266,6.13055229819e-05,621.383022,601.294871
80,1.050856,2457828.6381,1.0,0.999732926476,0.000481748666094,-0.000267073523752,621.399734,601.10437
81,1.050606,2457828.63829,1.0,1.00018500036,0.000481748666094,0.000185000363867,621.146046,601.086009
82,1.050357,2457828.63848,1.0,0.999237086488,0.000481245796923,-0.000762913511638,621.253519,601.396132
83,1.050111,2457828.63867,1.0,0.999646416506,0.000482251535266,-0.000353583493835,620.948576,601.328418
84,1.04962,2457828.63906,1.0,1.00047565772,0.000483257273608,0.000475657723693,621.071444,600.908358
85,1.049377,2457828.63925,1.0,0.999585070924,0.000482754404437,-0.000414929076029,621.09149,601.279242
86,1.049135,2457828.63944,1.0,0.999337150925,0.00048376014278,-0.000662849074844,621.444678,601.180601
87,1.048895,2457828.63963,1.0,0.999969754865,0.000482754404437,-3.02451352456e-05,621.265356,601.346754
88,1.048653,2457828.63983,1.0,1.0007779229,0.00048376014278,0.000777922903876,620.707835,601.188622
89,1.048416,2457828.64002,1.0,0.999556951068,0.000484263011951,-0.000443048931638,621.036083,601.177494
90,1.048179,2457828.64021,1.0,0.999806871559,0.00048376014278,-0.000193128441134,621.396927,601.331777
91,1.047944,2457828.64041,1.0,0.999690221343,0.000482754404437,-0.000309778656918,621.139313,601.535794
92,1.047711,2457828.6406,1.0,1.00020060714,0.000482754404437,0.000200607144733,621.005308,601.475083
93,1.047479,2457828.64079,1.0,0.999863176433,0.000482754404437,-0.000136823566572,621.005462,601.33685
94,1.047248,2457828.64098,1.0,1.00043593893,0.000483257273608,0.0004359389319,620.983332,601.219311
95,1.047019,2457828.64117,1.0,1.00034089117,0.000483257273608,0.000340891170901,621.194785,601.465695
96,1.046791,2457828.64137,1.0,1.00027098687,0.000483257273608,0.000270986868465,620.846123,601.187752
97,1.046564,2457828.64156,1.0,0.998465681056,0.000480742927752,-0.00153431894409,620.534574,600.910097
98,1.046338,2457828.64175,1.0,0.999613243937,0.000481245796923,-0.000386756063251,620.964535,601.071231
99,1.046114,2457828.64194,1.0,0.999954665687,0.000481245796923,-4.53343128968e-05,621.199714,601.349336
100,1.045891,2457828.64213,1.0,0.998621072087,0.000480240058581,-0.00137892791346,621.018095,601.441327
101,1.04567,2457828.64232,1.0,1.00020960938,0.000480742927752,0.000209609381694,620.890497,601.131706
102,1.04545,2457828.64252,1.0,1.00124249717,0.000482251535266,0.00124249717189,620.842957,600.925702
103,1.045232,2457828.64271,1.0,0.999824400621,0.000481748666094,-0.000175599378765,620.963582,601.04674
104,1.045014,2457828.6429,1.0,1.00107350123,0.000481748666094,0.00107350122576,620.655958,601.191956
105,1.044799,2457828.64309,1.0,1.00091710343,0.000481245796923,0.000917103425868,620.915663,601.374195
106,1.044584,2457828.64328,1.0,1.00069834985,0.000481245796923,0.000698349848732,621.058083,601.009254
107,1.04437,2457828.64348,1.0,0.999142990934,0.000480240058581,-0.000857009066108,621.103838,601.118296
108,1.044158,2457828.64367,1.0,1.00046752192,0.000481245796923,0.000467521923858,621.623392,601.347004
109,1.043947,2457828.64386,1.0,1.00117605909,0.000481748666094,0.00117605908883,621.398038,601.358742
110,1.043738,2457828.64405,1.0,0.999893737224,0.000480742927752,-0.000106262775834,621.134485,600.959306
111,1.043529,2457828.64424,1.0,1.00031262175,0.000480742927752,0.00031262174648,621.247895,601.331179
112,1.043322,2457828.64444,1.0,1.00112776719,0.000481245796923,0.00112776718551,620.909976,601.110968
113,1.043117,2457828.64463,1.0,1.00010039998,0.000480240058581,0.000100399980944,621.025823,601.17112
114,1.042913,2457828.64482,1.0,1.00040764756,0.000480240058581,0.000407647556975,620.758558,600.924147
115,1.042709,2457828.64501,1.0,0.999790118727,0.000479737189409,-0.000209881272993,620.937535,600.949993
116,1.042508,2457828.6452,1.0,1.00027186191,0.000479737189409,0.000271861905475,620.951922,601.017327
117,1.042307,2457828.6454,1.0,1.00128113576,0.000480240058581,0.00128113576421,620.618112,601.077648
118,1.042108,2457828.64559,1.0,1.00102012026,0.000480240058581,0.0010201202571,620.505178,601.184826
119,1.04191,2457828.64578,1.0,1.00027586839,0.000479737189409,0.000275868386224,620.994122,601.217335
120,1.041714,2457828.64597,1.0,1.00059769917,0.000480240058581,0.000597699168222,621.025595,601.131121
121,1.041519,2457828.64616,1.0,1.00113928378,0.000480240058581,0.00113928377807,621.096773,601.444164
122,1.041325,2457828.64636,1.0,1.00121118858,0.000480742927752,0.00121118858194,620.965197,601.218509
123,1.041131,2457828.64655,1.0,1.00079836935,0.000480240058581,0.000798369353594,621.176818,601.172321
124,1.04094,2457828.64674,1.0,0.999750887372,0.000479737189409,-0.00024911262757,621.32111,601.159751
125,1.040749,2457828.64693,1.0,1.00011143908,0.000479737189409,0.000111439080618,621.142652,601.252738
126,1.040561,2457828.64713,1.0,1.00077823811,0.000480240058581,0.000778238114121,620.742393,601.046204
127,1.040374,2457828.64732,1.0,0.999643759776,0.000479737189409,-0.000356240223932,620.893266,600.940436
128,1.040187,2457828.64751,1.0,1.00090143009,0.000480240058581,0.000901430085835,621.402967,601.460307
129,1.040003,2457828.6477,1.0,1.00101658164,0.000480742927752,0.00101658163843,621.193535,601.212856
130,1.03982,2457828.64789,1.0,0.999280168893,0.000479737189409,-0.000719831107396,621.206865,601.43935
131,1.039637,2457828.64809,1.0,1.00035127475,0.000480742927752,0.000351274749567,621.029199,601.118051
132,1.039456,2457828.64828,1.0,1.00009380024,0.000480742927752,9.38002364974e-05,621.083446,601.172147
133,1.039277,2457828.64847,1.0,0.999390783647,0.000480742927752,-0.00060921635259,621.412073,601.719782
134,1.039098,2457828.64866,1.0,0.999898173154,0.000481245796923,-0.000101826846386,621.139509,601.195303
135,1.038922,2457828.64885,1.0,1.00021145516,0.000481748666094,0.000211455159701,621.484014,601.414975
136,1.038742,2457828.64905,1.0,1.00023567109,0.000482754404437,0.000235671090109,621.583727,601.564807
137,1.038568,2457828.64924,1.0,0.998763767528,0.000481748666094,-0.00123623247162,621.008701,601.434807
138,1.038395,2457828.64943,1.0,0.998800974359,0.000482754404437,-0.00119902564057,620.918815,601.181549
139,1.038223,2457828.64963,1.0,1.00048960355,0.00048376014278,0.000489603548987,620.874519,601.101806
140,1.038053,2457828.64982,1.0,1.00027990162,0.000484765881122,0.000279901616934,621.353974,601.326516
141,1.037883,2457828.65001,1.0,0.999810719192,0.000484765881122,-0.000189280807504,621.119909,601.291614
142,1.037715,2457828.6502,1.0,1.00067916876,0.000484765881122,0.000679168763685,621.061825,601.110663
143,1.037383,2457828.65059,1.0,1.0000867779,0.00048376014278,8.67779046552e-05,621.155275,601.240613
144,1.037219,2457828.65078,1.0,1.0001782946,0.000482754404437,0.00017829459646,620.857537,601.239983
145,1.037056,2457828.65097,1.0,1.00041765484,0.000484263011951,0.000417654844111,620.726304,601.223346
146,1.036894,2457828.65116,1.0,0.999261553122,0.000484765881122,-0.000738446878051,620.933414,601.091513
147,1.036734,2457828.65135,1.0,0.999386259189,0.000484263011951,-0.000613740811198,620.715216,601.223481
148,1.036576,2457828.65155,1.0,0.999403330333,0.000484263011951,-0.000596669666581,620.788614,601.231061
149,1.036413,2457828.65174,1.0,0.999768533401,0.000484765881122,-0.000231466598877,620.819951,601.15733
150,1.036251,2457828.65194,1.0,1.00013074018,0.000484765881122,0.000130740183123,620.805653,601.007252
151,1.036096,2457828.65213,1.0,1.00071557154,0.000485268750293,0.000715571541706,620.550048,600.89751
152,1.035789,2457828.65252,1.0,0.999917528111,0.000484765881122,-8.24718888e-05,620.983629,601.198395
153,1.035637,2457828.65271,1.0,0.999568028559,0.000484765881122,-0.000431971440727,620.710726,601.135471
154,1.035488,2457828.6529,1.0,0.999541350076,0.000485771619465,-0.000458649923757,620.810245,601.443671
155,1.035339,2457828.65309,1.0,1.00063307355,0.000486274488636,0.000633073549741,620.879993,600.710731
156,1.035192,2457828.65329,1.0,1.00001403612,0.000487280226979,1.40361220025e-05,620.635472,601.012258
157,1.035046,2457828.65348,1.0,0.999926510469,0.000487280226979,-7.34895307528e-05,620.832633,601.484714
158,1.0349,2457828.65367,1.0,0.999818429949,0.000487280226979,-0.000181570051043,620.948253,600.672655
159,1.034756,2457828.65386,1.0,0.999687175617,0.000488285965321,-0.000312824382632,621.048236,601.204156
160,1.03461,2457828.65406,1.0,0.999651047237,0.000487280226979,-0.000348952762523,620.826962,601.248884
161,1.03447,2457828.65425,1.0,0.998172103517,0.000485771619465,-0.00182789648291,620.595638,600.831168
162,1.03433,2457828.65444,1.0,1.00006185945,0.000485268750293,6.1859445843e-05,620.93901,600.908048
163,1.034191,2457828.65464,1.0,0.999059656629,0.000482754404437,-0.000940343370836,620.93512,601.085173
164,1.034054,2457828.65483,1.0,0.999840104095,0.000483257273608,-0.000159895904623,620.851534,601.112923
165,1.033918,2457828.65502,1.0,1.00023181276,0.000482754404437,0.00023181276286,620.958428,600.989655
166,1.033783,2457828.65521,1.0,0.999713852029,0.000481748666094,-0.000286147971193,620.539886,601.107327
167,1.033647,2457828.6554,1.0,1.00052755163,0.000482251535266,0.000527551628813,620.818752,601.182295
168,1.033515,2457828.6556,1.0,0.999679205849,0.000481748666094,-0.000320794150777,620.762876,600.969497
169,1.033384,2457828.65579,1.0,1.00091422613,0.000482251535266,0.000914226126701,620.762487,600.712065
170,1.033254,2457828.65598,1.0,1.00037063998,0.000482251535266,0.000370639984493,620.865645,601.1876
171,1.033126,2457828.65617,1.0,0.999436282657,0.000481748666094,-0.000563717342968,620.720939,601.168254
172,1.032999,2457828.65636,1.0,0.999513216143,0.000481748666094,-0.000486783857131,620.818649,600.930236
173,1.032873,2457828.65656,1.0,1.00051995474,0.000482251535266,0.000519954736163,620.968855,601.116418
174,1.032748,2457828.65675,1.0,1.00076585227,0.000482754404437,0.000765852273297,620.677706,600.9786
175,1.032624,2457828.65694,1.0,1.00028359525,0.000482251535266,0.000283595250405,621.075166,601.228946
176,1.032502,2457828.65713,1.0,1.00006486259,0.000482251535266,6.48625928499e-05,620.860218,600.913855
177,1.032381,2457828.65732,1.0,0.999650974858,0.000481748666094,-0.000349025142328,621.086124,601.121539
178,1.032261,2457828.65752,1.0,0.999491580753,0.000482251535266,-0.000508419247415,620.828848,600.985375
179,1.032142,2457828.65771,1.0,0.999970306726,0.000483257273608,-2.96932742307e-05,621.042349,601.338656
180,1.032025,2457828.6579,1.0,0.999616260412,0.000483257273608,-0.000383739587769,620.781613,601.060901
181,1.031908,2457828.65809,1.0,0.999501139733,0.000484765881122,-0.000498860266714,620.610859,601.124398
182,1.031793,2457828.65828,1.0,0.999598669936,0.000494320395377,-0.000401330064435,620.83927,600.74025
183,1.03168,2457828.65848,1.0,0.99906964608,0.000489794572835,-0.000930353920256,620.715761,600.859613
184,1.031567,2457828.65867,1.0,0.99922856818,0.000498846217918,-0.00077143182043,620.516534,601.029118
185,1.031456,2457828.65886,1.0,0.999794793369,0.000497840479576,-0.000205206630929,620.737649,600.754689
186,1.031347,2457828.65905,1.0,0.999408060559,0.000499851956261,-0.000591939440601,620.728184,601.344847
187,1.031238,2457828.65925,1.0,1.0003227741,0.000505383517145,0.000322774104091,620.592829,601.228882
188,1.031131,2457828.65944,1.0,0.999280802764,0.000503874909631,-0.00071919723577,620.785178,600.963346
189,1.031025,2457828.65963,1.0,0.999413072788,0.000502869171289,-0.000586927211766,620.889398,601.376459
190,1.030919,2457828.65982,1.0,0.999365336578,0.000501360563775,-0.000634663421758,620.665852,601.077054
191,1.030814,2457828.66002,1.0,1.00079100704,0.000503874909631,0.000791007040124,620.791905,600.941764
192,1.030712,2457828.66021,0.999990098655,1.00037108487,0.000499851956261,0.000380986219639,620.518789,601.121086
